,Time (s),Voltage (V),Current (A),Current Std (A),Resistance (Ohm),Power (W),Temperature (C),Power 1 (W/m2),Power 2 (W/m2),Power 3 (W/m2),Power 4 (W/m2)
0,1590672423.6152587,-0.01,0.05119015,6.210143e-06,0.19535008199819692,0.0005119015,23.506276462477388,193.11858633023502,0.0,0.0,0.0
1,1590672424.1189022,-0.004965,0.05117916,3.275031e-06,0.0970121432239216,0.00025410452939999997,23.43461098545764,193.11858633023502,0.0,0.0,0.0
2,1590672424.5604,7e-05,0.05115999,6.46927e-06,0.00136825671779842,3.5811992999999997e-06,23.506276462477388,193.11858633023502,0.0,0.0,0.0
3,1590672424.9616115,0.005105,0.0511339,9.031444e-06,0.09983592098392652,0.00026103855950000004,23.43461098545764,193.11858633023502,0.0,0.0,0.0
4,1590672425.3686495,0.01014,0.05114633,2.806048e-05,0.19825469393405157,0.0005186237861999999,23.36294550843789,193.11858633023502,0.0,0.0,0.0
5,1590672425.7795248,0.015175,0.05109683,9.761161e-06,0.29698515543919257,0.00077539439525,23.36294550843789,193.11858633023502,0.0,0.0,0.0
6,1590672426.2039995,0.020215,0.05108477,8.034267e-06,0.39571480893424793,0.00103267862555,23.43461098545764,193.11858633023502,0.0,0.0,0.0
7,1590672426.6232991,0.02525,0.0510559,6.151708e-06,0.49455596708705557,0.001289161475,23.36294550843789,193.11858633023502,0.0,0.0,0.0
8,1590672427.0474715,0.030285,0.05103028,7.646128e-06,0.593471170450172,0.0015454520297999998,23.36294550843789,193.11858633023502,0.0,0.0,0.0
9,1590672427.4668467,0.03532,0.05104535,3.23272e-05,0.6919337412712421,0.001802921762,23.36294550843789,193.11858633023502,0.0,0.0,0.0
10,1590672427.8718748,0.040355,0.0509887,1.547228e-06,0.7914498702653726,0.0020576489885,23.36294550843789,193.11858633023502,0.0,0.0,0.0
11,1590672428.2804193,0.04539,0.05096664,8.61604e-06,0.8905825457593437,0.0023133757896,23.43461098545764,193.11858633023502,0.0,0.0,0.0
12,1590672428.7399416,0.050425,0.05094784,7.830691e-06,0.9897377396176167,0.002569044832,23.36294550843789,193.11858633023502,0.0,0.0,0.0
13,1590672429.1786764,0.05546,0.05091242,3.580375e-06,1.0893216232895628,0.0028236028132,23.36294550843789,193.11858633023502,0.0,0.0,0.0
14,1590672429.5884976,0.060495,0.05091294,2.630649e-05,1.1882048060866257,0.0030799783053,23.43461098545764,193.11858633023502,0.0,0.0,0.0
15,1590672430.0149584,0.06553,0.0508572,8.539728e-06,1.2885097881912493,0.003332672316,23.43461098545764,193.11858633023502,0.0,0.0,0.0
16,1590672430.4222457,0.070565,0.05084205,7.520603e-06,1.3879259392569734,0.0035876692582500003,23.36294550843789,193.11858633023502,0.0,0.0,0.0
17,1590672430.851341,0.075605,0.05080639,5.30255e-06,1.4881002173151843,0.00384121711595,23.43461098545764,193.11858633023502,0.0,0.0,0.0
18,1590672431.2603955,0.08064,0.05078238,5.136425e-06,1.5879523567032503,0.0040950911232,23.43461098545764,193.11858633023502,0.0,0.0,0.0
19,1590672431.6728563,0.085675,0.05077106,3.284389e-05,1.6874770784773845,0.0043498105655,23.43461098545764,193.11858633023502,0.0,0.0,0.0
20,1590672432.0905225,0.09071,0.05072204,8.533092e-06,1.7883744423528705,0.004600996248400001,23.36294550843789,193.11858633023502,0.0,0.0,0.0
21,1590672432.5055873,0.095745,0.05069163,5.622933e-06,1.8887733537075055,0.00485347011435,23.43461098545764,193.11858633023502,0.0,0.0,0.0
22,1590672432.942953,0.10078,0.05065905,7.410088e-06,1.9893780084703523,0.005105419058999999,23.43461098545764,193.11858633023502,0.0,0.0,0.0
23,1590672433.354906,0.105815,0.05062462,9.393209e-06,2.0901885288225373,0.005356844165300001,23.36294550843789,193.11858633023502,0.0,0.0,0.0
24,1590672433.7649856,0.11085,0.05061203,2.52844e-05,2.190190751092181,0.0056103435255000006,23.291280031418143,193.11858633023502,0.0,0.0,0.0
25,1590672434.1979315,0.115885,0.0505552,8.596424e-06,2.292246890527582,0.005858589352,23.36294550843789,193.11858633023502,0.0,0.0,0.0
26,1590672434.6430182,0.12092,0.05052079,7.02657e-06,2.3934700941929052,0.006108973926800001,23.36294550843789,193.11858633023502,0.0,0.0,0.0
27,1590672435.0618718,0.125955,0.05047821,5.118841e-06,2.495235072717515,0.006357982940550001,23.36294550843789,193.11858633023502,0.0,0.0,0.0
28,1590672435.465901,0.130995,0.05044449,9.019493e-06,2.596814835475589,0.0066079759675500005,23.36294550843789,193.11858633023502,0.0,0.0,0.0
29,1590672435.8796723,0.13603,0.0503824,2.15988e-05,2.6999507764616215,0.006853517872000001,23.36294550843789,193.11858633023502,0.0,0.0,0.0
30,1590672436.3295765,0.141065,0.05036838,7.894734e-06,2.80066581454476,0.007105215524699999,23.36294550843789,193.11858633023502,0.0,0.0,0.0
31,1590672436.7588508,0.1461,0.05032393,9.677723e-06,2.903191384297689,0.007352326173000001,23.291280031418143,193.11858633023502,0.0,0.0,0.0
32,1590672437.1761427,0.151135,0.05027823,7.448678e-06,3.0059729628509197,0.007598800291049999,23.36294550843789,193.11858633023502,0.0,0.0,0.0
33,1590672437.6454911,0.15617,0.05023235,2.737524e-06,3.1089526968178873,0.0078447860995,23.36294550843789,193.11858633023502,0.0,0.0,0.0
34,1590672438.0430262,0.161205,0.05018415,1.399224e-05,3.2122692124903978,0.008089935900749998,23.291280031418143,193.11858633023502,0.0,0.0,0.0
35,1590672438.4494421,0.16624,0.05014211,5.282754e-06,3.3153770353900147,0.008335624366399999,23.36294550843789,193.11858633023502,0.0,0.0,0.0
36,1590672438.869448,0.171275,0.0500934,7.443395e-06,3.4191130967352983,0.008579747085,23.36294550843789,193.11858633023502,0.0,0.0,0.0
37,1590672439.2904255,0.17631,0.05004469,7.707054e-06,3.523051096929564,0.0088233792939,23.36294550843789,193.11858633023502,0.0,0.0,0.0
38,1590672439.7109687,0.18135,0.04999487,8.798826e-06,3.627372168384477,0.0090665696745,23.36294550843789,193.11858633023502,0.0,0.0,0.0
39,1590672440.1325102,0.186385,0.04993773,1.128086e-05,3.7323482665311376,0.00930764380605,23.291280031418143,193.11858633023502,0.0,0.0,0.0
40,1590672440.5529325,0.19142,0.04988808,3.07244e-06,3.836988715540867,0.009549576273600001,23.36294550843789,193.11858633023502,0.0,0.0,0.0
41,1590672440.9911044,0.196455,0.04982916,7.239571e-06,3.942570976512548,0.009789187627799999,23.36294550843789,193.11858633023502,0.0,0.0,0.0
42,1590672441.4333851,0.20149,0.04976219,7.243422e-06,4.049058130279234,0.010026583663099999,23.36294550843789,193.11858633023502,0.0,0.0,0.0
43,1590672441.8394682,0.206525,0.0496967,1.251502e-05,4.155708527930425,0.0102636109675,23.291280031418143,193.11858633023502,0.0,0.0,0.0
44,1590672442.2487798,0.21155,0.04963621,6.058771e-06,4.262009528930593,0.0105005402255,23.36294550843789,193.11858633023502,0.0,0.0,0.0
45,1590672442.657669,0.2166,0.04956936,1.187869e-05,4.369634790523824,0.010736723375999999,23.291280031418143,193.11858633023502,0.0,0.0,0.0
46,1590672443.0714722,0.22165,0.04950375,6.455969e-06,4.477438577885514,0.0109725061875,23.291280031418143,193.11858633023502,0.0,0.0,0.0
47,1590672443.4849756,0.22665,0.04942309,6.512908e-06,4.585913183493788,0.0112017433485,23.36294550843789,193.11858633023502,0.0,0.0,0.0
48,1590672443.9514902,0.2317,0.04935909,6.219756e-06,4.694170820410181,0.011436501153,23.291280031418143,193.11858633023502,0.0,0.0,0.0
49,1590672444.3634403,0.23675,0.04926913,9.819524e-06,4.805240116884548,0.0116644665275,23.36294550843789,193.11858633023502,0.0,0.0,0.0
50,1590672444.7710454,0.24175,0.04919475,1.762911e-06,4.914142261115261,0.0118928308125,23.291280031418143,193.11858633023502,0.0,0.0,0.0
51,1590672445.1788957,0.2468,0.04910797,2.934262e-06,5.025660804142382,0.012119846996,23.291280031418143,193.11858633023502,0.0,0.0,0.0
52,1590672445.5808296,0.25185,0.04901945,4.199961e-06,5.137756543576071,0.012345548482500001,23.291280031418143,193.11858633023502,0.0,0.0,0.0
53,1590672445.976443,0.2569,0.04892966,8.9333e-06,5.250394137216568,0.012570029654000002,23.291280031418143,193.11858633023502,0.0,0.0,0.0
54,1590672446.425956,0.2619,0.04882137,1.090534e-05,5.364454131459236,0.012786316803000002,23.291280031418143,193.11858633023502,0.0,0.0,0.0
55,1590672446.8503199,0.26695,0.04872677,7.34516e-06,5.478508015203963,0.013007611251500002,23.291280031418143,193.11858633023502,0.0,0.0,0.0
56,1590672447.2482255,0.272,0.04862246,5.797644e-06,5.594122551594469,0.01322530912,23.291280031418143,193.11858633023502,0.0,0.0,0.0
57,1590672447.6749408,0.277,0.04850722,1.104912e-05,5.71049010848282,0.01343649994,23.291280031418143,193.11858633023502,0.0,0.0,0.0
58,1590672448.0831714,0.28205,0.04839765,9.663629e-06,5.827762298376058,0.013650557182500002,23.291280031418143,193.11858633023502,0.0,0.0,0.0
59,1590672448.493776,0.2871,0.04826209,8.00142e-06,5.948768484746517,0.013856046039000001,23.291280031418143,193.11858633023502,0.0,0.0,0.0
60,1590672448.9118047,0.29215,0.04813933,6.636182e-06,6.0688422543479525,0.014063905259500001,23.219614554398394,193.11858633023502,0.0,0.0,0.0
61,1590672449.3252907,0.29715,0.04800823,3.280454e-06,6.189563747715757,0.014265645544500001,23.291280031418143,193.11858633023502,0.0,0.0,0.0
62,1590672449.734965,0.3022,0.04786463,3.852165e-06,6.3136391109677445,0.014464691186,23.291280031418143,193.11858633023502,0.0,0.0,0.0
63,1590672450.1575637,0.30725,0.04771021,6.139553e-06,6.439921350168025,0.014658962022500001,23.291280031418143,193.11858633023502,0.0,0.0,0.0
64,1590672450.5772882,0.31225,0.0475577,5.987915e-06,6.565708602392463,0.014849891825000001,23.291280031418143,193.11858633023502,0.0,0.0,0.0
65,1590672450.9978812,0.3173,0.04739382,6.367893e-06,6.6949657149392054,0.015038059086000002,23.291280031418143,193.11858633023502,0.0,0.0,0.0
66,1590672451.4150016,0.32235,0.04722561,5.347465e-06,6.825745607097505,0.015223175383500001,23.291280031418143,193.11858633023502,0.0,0.0,0.0
67,1590672451.852162,0.3274,0.04704228,8.009266e-06,6.959696681368336,0.015401642472,23.219614554398394,193.11858633023502,0.0,0.0,0.0
68,1590672452.26849,0.3324,0.04685469,6.804064e-06,7.094273806955077,0.015574498955999997,23.219614554398394,193.11858633023502,0.0,0.0,0.0
69,1590672452.715838,0.33745,0.04664971,4.269474e-06,7.233699845079424,0.0157419446395,23.219614554398394,193.11858633023502,0.0,0.0,0.0
70,1590672453.1614776,0.3425,0.04642282,2.174339e-05,7.377837020672162,0.01589981585,23.219614554398394,193.11858633023502,0.0,0.0,0.0
71,1590672453.5823627,0.3475,0.04620159,4.976891e-06,7.521386168744408,0.016055052525,23.219614554398394,193.11858633023502,0.0,0.0,0.0
72,1590672454.004489,0.35255,0.04596344,1.036148e-05,7.670226597487045,0.016204410771999998,23.291280031418143,193.11858633023502,0.0,0.0,0.0
73,1590672454.4132895,0.3576,0.04571864,8.358925e-06,7.821754977838361,0.016348985663999997,23.291280031418143,193.11858633023502,0.0,0.0,0.0
74,1590672454.8266566,0.3626,0.04544858,5.834727e-06,7.978247065144829,0.016479655108,23.219614554398394,193.11858633023502,0.0,0.0,0.0
75,1590672455.2606213,0.36765,0.04518162,6.754202e-06,8.137158428582241,0.016611022593,23.291280031418143,193.11858633023502,0.0,0.0,0.0
76,1590672455.6706057,0.3727,0.04488979,4.996151e-06,8.30255610462869,0.016730424732999998,23.219614554398394,193.11858633023502,0.0,0.0,0.0
77,1590672456.081077,0.37775,0.04456595,8.919201e-06,8.476202122921197,0.0168347876125,23.219614554398394,193.11858633023502,0.0,0.0,0.0
78,1590672456.5163932,0.38275,0.04423429,3.576843e-06,8.652789498825458,0.0169306744975,23.219614554398394,193.11858633023502,0.0,0.0,0.0
79,1590672456.9434977,0.3878,0.0438786,4.518478e-06,8.838021267770621,0.01701612108,23.219614554398394,193.11858633023502,0.0,0.0,0.0
80,1590672457.376239,0.39285,0.04350673,4.436541e-06,9.029637483672065,0.0170916188805,23.219614554398394,193.11858633023502,0.0,0.0,0.0
81,1590672457.7839875,0.39785,0.04311531,3.783945e-06,9.227580643627519,0.017153426083499998,23.147949077378648,193.11858633023502,0.0,0.0,0.0
82,1590672458.209186,0.4029,0.04268526,2.43569e-06,9.438855473763073,0.017197891254,23.219614554398394,193.11858633023502,0.0,0.0,0.0
83,1590672458.624864,0.40795,0.04224613,8.346075e-06,9.656505814852153,0.0172343087335,23.219614554398394,193.11858633023502,0.0,0.0,0.0
84,1590672459.0479028,0.413,0.04175672,9.729135e-06,9.890623593040832,0.017245525359999996,23.147949077378648,193.11858633023502,0.0,0.0,0.0
85,1590672459.4554386,0.418,0.04126266,4.528809e-06,10.130224275410262,0.01724779188,23.219614554398394,193.11858633023502,0.0,0.0,0.0
86,1590672459.8799946,0.42305,0.04072375,4.212944e-06,10.388286933300591,0.0172281824375,23.219614554398394,193.11858633023502,0.0,0.0,0.0
87,1590672460.3166223,0.4281,0.04014434,9.2614e-06,10.664018887843216,0.017185791954,23.219614554398394,193.11858633023502,0.0,0.0,0.0
88,1590672460.762322,0.4331,0.0395425,7.015977e-06,10.95277233356515,0.01712585675,23.219614554398394,193.11858633023502,0.0,0.0,0.0
89,1590672461.1577427,0.43815,0.03888052,2.829153e-06,11.269139404514137,0.017035499838000002,23.147949077378648,193.11858633023502,0.0,0.0,0.0
90,1590672461.565093,0.4432,0.03819568,6.741356e-06,11.603406458531435,0.016928325376,23.219614554398394,193.11858633023502,0.0,0.0,0.0
91,1590672461.9821377,0.44825,0.03745306,3.673463e-06,11.968314471501126,0.016788334145,23.219614554398394,175.25876669807113,0.0,0.0,0.0
92,1590672462.4251852,0.45325,0.03667701,5.750063e-06,12.357877591439431,0.0166238547825,23.219614554398394,193.11858633023502,0.0,0.0,0.0
93,1590672462.8478782,0.4583,0.03583239,4.524666e-06,12.79010414878829,0.016421984336999998,23.291280031418143,193.11858633023502,0.0,0.0,0.0
94,1590672463.252449,0.46335,0.03493373,8.108245e-06,13.26368526922261,0.0161865437955,23.219614554398394,193.11858633023502,0.0,0.0,0.0
95,1590672463.6886542,0.46835,0.03398278,9.725541e-07,13.781980167602534,0.015915835012999997,23.219614554398394,193.11858633023502,0.0,0.0,0.0
96,1590672464.094523,0.4734,0.03297167,4.884153e-06,14.357780482456604,0.015608788578,23.219614554398394,193.11858633023502,0.0,0.0,0.0
97,1590672464.4951882,0.47845,0.03187374,5.2567e-06,15.010789446108301,0.015249990903,23.219614554398394,193.11858633023502,0.0,0.0,0.0
98,1590672464.914613,0.4835,0.03071681,1.966824e-06,15.7405668101603,0.014851577635,23.219614554398394,193.11858633023502,0.0,0.0,0.0
99,1590672465.3427358,0.4885,0.02948223,5.956751e-06,16.5693029326479,0.014402069355,23.219614554398394,193.11858633023502,0.0,0.0,0.0
100,1590672465.7806551,0.49355,0.0281641,6.133939e-06,17.524082076118177,0.013900391555,23.219614554398394,193.11858633023502,0.0,0.0,0.0
101,1590672466.2206352,0.4986,0.02675707,4.522269e-06,18.63432730115816,0.013341075102,23.219614554398394,193.11858633023502,0.0,0.0,0.0
102,1590672466.6034682,0.5036,0.02527831,6.710945e-06,19.922217901434077,0.012730156916000001,23.291280031418143,193.11858633023502,0.0,0.0,0.0
103,1590672467.0361388,0.50865,0.02368127,5.73942e-07,21.479000070519866,0.012045477985500002,23.219614554398394,193.11858633023502,0.0,0.0,0.0
104,1590672467.451655,0.5137,0.02197817,3.455692e-06,23.373192581547965,0.011290185929000001,23.219614554398394,193.11858633023502,0.0,0.0,0.0
105,1590672467.8740501,0.5187,0.02020948,4.316722e-06,25.66617250913928,0.010482657276,23.219614554398394,193.11858633023502,0.0,0.0,0.0
106,1590672468.2758942,0.52375,0.01830376,2.174284e-06,28.614339348855104,0.009586594300000001,23.219614554398394,193.11858633023502,0.0,0.0,0.0
107,1590672468.6760907,0.5288,0.01629858,8.172471e-06,32.44454424864007,0.008618689104,23.219614554398394,193.11858633023502,0.0,0.0,0.0
108,1590672469.159462,0.53385,0.01417267,4.449247e-06,37.667567226217784,0.0075660798795000005,23.147949077378648,193.11858633023502,0.0,0.0,0.0
109,1590672469.5743945,0.53885,0.01195475,4.171717e-06,45.07413371254104,0.0064418170375,23.219614554398394,193.11858633023502,0.0,0.0,0.0
110,1590672469.988543,0.5439,0.00960775,1.963824e-06,56.610548775727935,0.0052256552250000005,23.291280031418143,193.11858633023502,0.0,0.0,0.0
111,1590672470.463802,0.54895,0.007140456,2.876589e-06,76.87884359206191,0.0039197533212,23.147949077378648,193.11858633023502,0.0,0.0,0.0
112,1590672470.8909588,0.55395,0.004554491,2.714345e-06,121.6272026885112,0.0025229602894500003,23.147949077378648,193.11858633023502,0.0,0.0,0.0
113,1590672471.3866935,0.559,0.001844543,1.835575e-06,303.05609573753503,0.001031099537,23.147949077378648,193.11858633023502,0.0,0.0,0.0
114,1590672471.7902038,0.56405,-0.001011921,2.931965e-06,557.4051729334602,0.0005707740400500001,23.147949077378648,193.11858633023502,0.0,0.0,0.0
115,1590672472.2058244,0.5691,-0.003991368,5.285954e-06,142.58269345247044,0.0022714875288000003,23.147949077378648,193.11858633023502,0.0,0.0,0.0
116,1590672472.6118326,0.5741,-0.007054058,2.903345e-06,81.38577822864514,0.0040497346978,23.219614554398394,193.11858633023502,0.0,0.0,0.0
117,1590672473.018059,0.57915,-0.01025846,4.699867e-06,56.45584229991636,0.0059411871090000005,23.147949077378648,193.11858633023502,0.0,0.0,0.0
118,1590672473.4526465,0.5842,-0.01360213,5.805836e-06,42.949155757223316,0.007946364346,23.147949077378648,193.11858633023502,0.0,0.0,0.0
119,1590672474.0252337,0.5892,-0.01702582,4.729511e-06,34.60626272332257,0.010031613144,23.219614554398394,193.11858633023502,0.0,0.0,0.0
120,1590672474.4362977,0.59425,-0.02061977,8.32659e-06,28.819429120693393,0.012253298322499998,23.147949077378648,193.11858633023502,0.0,0.0,0.0
121,1590672474.856554,0.5993,-0.02433511,7.431916e-06,24.626969017193677,0.014584031423000002,23.0762836003589,193.11858633023502,0.0,0.0,0.0
122,1590672475.2866814,0.60435,-0.02814346,8.021206e-06,21.47390548283687,0.017008500051000002,23.147949077378648,193.11858633023502,0.0,0.0,0.0
123,1590672475.6874661,0.60935,-0.03205185,5.482475e-06,19.011383118291143,0.019530794797499997,23.147949077378648,193.11858633023502,0.0,0.0,0.0
124,1590672476.0959222,0.6144,-0.03612723,1.070129e-05,17.006562639870257,0.022196570112,23.0762836003589,193.11858633023502,0.0,0.0,0.0
125,1590672476.5094023,0.61945,-0.04032161,7.565145e-06,15.362729811632024,0.0249772213145,23.147949077378648,193.11858633023502,0.0,0.0,0.0
126,1590672476.921385,0.62445,-0.04456731,9.113373e-06,14.011390860251606,0.027830056729499997,23.0762836003589,193.11858633023502,0.0,0.0,0.0
127,1590672477.3425825,0.6295,-0.0489946,1.243786e-05,12.848354716642241,0.030842100699999996,23.147949077378648,193.11858633023502,0.0,0.0,0.0
128,1590672477.7537434,0.63455,-0.05350264,1.058063e-05,11.860162414415438,0.033950100212,23.147949077378648,193.11858633023502,0.0,0.0,0.0
129,1590672478.1692703,0.63955,-0.05809195,1.566975e-05,11.009270647654278,0.0371527066225,23.147949077378648,193.11858633023502,0.0,0.0,0.0
130,1590672478.5837688,0.6446,-0.06285259,1.477044e-05,10.255742842100858,0.040514779513999996,23.0762836003589,193.11858633023502,0.0,0.0,0.0
131,1590672479.0212784,0.64965,-0.06772036,1.430633e-05,9.59312679377369,0.043994531873999994,23.0762836003589,175.25876669807113,0.0,0.0,0.0
132,1590672479.433688,0.6547,-0.07266147,1.022384e-05,9.010277386350701,0.047571464409,23.147949077378648,175.25876669807113,0.0,0.0,0.0
133,1590672479.8491693,0.6597,-0.07770482,1.387025e-05,8.489820837368905,0.05126186975399999,23.0762836003589,193.11858633023502,0.0,0.0,0.0
134,1590672480.265856,0.66475,-0.08284836,1.751129e-05,8.023695339292171,0.055073447309999995,23.147949077378648,193.11858633023502,0.0,0.0,0.0
135,1590672480.6744752,0.6698,-0.08813127,1.545326e-05,7.600026642076076,0.05903032464599999,23.00461812333915,193.11858633023502,0.0,0.0,0.0
136,1590672481.109661,0.6748,-0.09343456,1.599549e-05,7.222167043971738,0.063049641088,23.0762836003589,175.25876669807113,0.0,0.0,0.0
137,1590672481.4957643,0.67985,-0.09890811,1.637595e-05,6.873551622814348,0.06724267858349998,23.0762836003589,193.11858633023502,0.0,0.0,0.0
138,1590672481.919738,0.6849,-0.1044431,1.990686e-05,6.557637603632982,0.07153307918999999,23.0762836003589,193.11858633023502,0.0,0.0,0.0
139,1590672482.3392863,0.68995,-0.1101786,1.779533e-05,6.2621053453211415,0.07601772507,23.0762836003589,193.11858633023502,0.0,0.0,0.0
140,1590672482.8147333,0.69495,-0.1158575,1.554985e-05,5.9983168979133845,0.080515169625,23.00461812333915,175.25876669807113,0.0,0.0,0.0
